,time_s,flux,flux_err,delta_t
509417,234162117.19044176,9140.2666015625,30.59198570251465,719.99
509418,234162137.1902534,9058.21875,30.500202178955078,20.0
509419,234162157.1900645,9302.0888671875,30.730295181274414,20.0
509420,234162177.18987617,9217.5341796875,30.60531997680664,20.0
509421,234162197.18968785,9252.505859375,30.65167999267578,20.0
509422,234162217.18949896,9093.7177734375,30.551633834838867,20.0
509423,234162237.18931058,9117.830078125,30.557090759277344,20.0
509424,234162257.1891222,9271.7548828125,30.69165802001953,20.0
509425,234162277.1889339,9131.2763671875,30.554773330688477,20.0
509426,234162297.188745,9199.517578125,30.859764099121094,20.0
509427,234162317.1885567,9205.7041015625,30.6461181640625,20.0
509428,234162337.18836838,9314.6767578125,30.878267288208008,20.0
509429,234162397.18780288,9198.208984375,30.63749122619629,60.0
509430,234162477.18704903,9168.265625,30.6472225189209,80.0
509431,234162497.18686005,9211.57421875,30.612913131713867,20.0
509432,234162517.1866718,9192.9296875,30.60910987854004,20.0
509433,234162537.18648347,9242.267578125,30.635650634765625,20.0
509434,234162557.18629515,9250.2119140625,30.675119400024414,20.0
509435,234162577.18610623,9229.5009765625,30.635622024536133,20.0
509436,234162597.18591794,9222.9267578125,30.609060287475586,20.0
509437,234162617.18572965,9174.4111328125,30.5941162109375,20.0
509438,234162637.1855407,9276.771484375,30.645191192626953,20.0
509439,234162657.1853524,9075.259765625,30.523590087890625,20.0
509440,234162677.18516406,9203.1025390625,30.726408004760742,20.0
509441,234162697.18497574,9268.0439453125,30.704254150390625,20.0
509442,234162717.18478745,9191.3603515625,30.57941246032715,20.0
509443,234162737.18459857,9094.2373046875,30.517803192138672,20.0
509444,234162757.18441018,9162.4326171875,30.588603973388672,20.0
509445,234162777.18422192,9320.9951171875,30.707231521606445,20.0
509446,234162797.18403363,9222.2001953125,30.603513717651367,20.0
509447,234162817.18384466,9259.6943359375,30.653736114501953,20.0
509448,234162837.18365636,9118.904296875,30.545015335083008,20.0
509449,234162857.183468,9219.47265625,30.609384536743164,20.0
509450,234162877.1832796,9125.88671875,30.543672561645508,20.0
509451,234162897.18309075,9162.64453125,30.613283157348633,20.0
509452,234162917.18290243,9189.38671875,30.591236114501953,20.0
509453,234162937.1827141,9164.396484375,30.580429077148438,20.0
509454,234162957.18252578,9207.7490234375,30.643136978149414,20.0
509455,234162977.18233755,9261.3173828125,30.653039932250977,20.0
509456,234162997.18214858,9233.9111328125,30.658809661865234,20.0
509457,234163017.18196028,9204.720703125,30.60106658935547,20.0
509458,234163037.18177196,9198.126953125,30.598588943481445,20.0
509459,234163057.18158364,9163.0849609375,30.57748794555664,20.0
509460,234163077.18139538,9253.7177734375,30.696306228637695,20.0
509461,234163097.1812071,9189.404296875,30.606264114379883,20.0
509462,234163117.1810181,9170.1455078125,30.57054901123047,20.0
509463,234163137.18082982,9280.48828125,30.869140625,20.0
509464,234163157.18064156,9283.875,30.696685791015625,20.0
509465,234163177.1804532,9106.2568359375,30.530019760131836,20.0
509466,234163197.18026492,9165.74609375,30.560283660888672,20.0
509467,234163217.18007663,9252.0126953125,30.646041870117188,20.0
509468,234163237.17988768,9162.580078125,30.571950912475586,20.0
509469,234163257.17969936,9232.8310546875,30.629636764526367,20.0
509470,234163277.17951113,9140.375,30.52499771118164,20.0
509471,234163297.17932275,9255.14453125,30.659269332885742,20.0
509472,234163317.1791345,9218.5654296875,30.641653060913086,20.0
509473,234163337.17894617,9247.900390625,30.65337562561035,20.0
509474,234163357.17875788,9208.5869140625,30.599651336669922,20.0
509475,234163397.17838067,9157.5869140625,30.559423446655273,40.0
509476,234163417.17819232,9190.9814453125,30.581645965576172,20.0
509477,234163437.17800403,9330.7431640625,30.680225372314453,20.0
509478,234163477.17762735,9083.0146484375,30.522560119628906,40.0
509479,234163497.177439,9274.98828125,30.623414993286133,20.0
509480,234163577.17668518,9062.1357421875,30.474489212036133,80.0
509481,234163597.17649686,9202.8515625,30.65231704711914,20.0
509482,234163617.17630854,9251.9306640625,30.614803314208984,20.0
509483,234163637.1761203,9262.2802734375,30.632028579711914,20.0
509484,234163657.17593196,9193.22265625,30.550031661987305,20.0
509485,234163677.17574367,9198.599609375,30.562925338745117,20.0
509486,234163697.17555535,9183.392578125,30.540090560913086,20.0
509487,234163717.17536703,9172.810546875,30.595327377319336,20.0
509488,234163737.17517814,9265.5322265625,30.630138397216797,20.0
509489,234163757.17498985,9320.3916015625,30.71135902404785,20.0
509490,234163777.17480153,9149.3193359375,30.55976104736328,20.0
509491,234163797.1746132,9198.4912109375,30.537363052368164,20.0
509492,234163817.17442495,9246.5869140625,30.640518188476562,20.0
509493,234163837.17423657,9211.138671875,30.593536376953125,20.0
509494,234163857.1740483,9249.521484375,30.669109344482422,20.0
509495,234163877.17386,9116.876953125,30.494009017944336,20.0
509496,234163897.1736717,9266.5517578125,30.63728141784668,20.0
509497,234163917.17348337,9248.26953125,30.612056732177734,20.0
509498,234163937.17329514,9189.5546875,30.551368713378906,20.0
509499,234163957.17310676,9260.0634765625,30.595592498779297,20.0
509500,234163977.17291844,9149.357421875,30.542936325073242,20.0
509501,234163997.17273015,9248.55859375,30.631662368774414,20.0
509502,234164017.1725419,9267.6044921875,30.638648986816406,20.0
509503,234164037.17235294,9252.14453125,30.60393714904785,20.0
509504,234164057.17216524,9121.8427734375,30.511245727539062,20.0
509505,234164077.17197633,9178.3876953125,30.57342529296875,20.0
509506,234164097.17178792,9243.3173828125,30.594207763671875,20.0
509507,234164117.17159957,9289.3271484375,30.62079620361328,20.0
509508,234164137.17141134,9145.0869140625,30.541767120361328,20.0
509509,234164157.17122293,9212.0283203125,30.554285049438477,20.0
509510,234164177.1710347,9299.1884765625,30.62009620666504,20.0
509511,234164197.17084637,9095.3232421875,30.474842071533203,20.0
509512,234164217.17065805,9235.0380859375,30.598896026611328,20.0
509513,234164237.1704698,9171.1220703125,30.53844451904297,20.0
509514,234164257.1702815,9185.2587890625,30.557567596435547,20.0
509515,234164277.17009315,9251.8486328125,30.59629249572754,20.0
509516,234164297.16990486,9103.5,30.479394912719727,20.0
509517,234164317.1697166,9132.3505859375,30.48366928100586,20.0
509518,234164337.16952825,9262.30078125,30.607833862304688,20.0
509519,234164357.16933995,9267.861328125,30.61632537841797,20.0
509520,234164377.16915166,9197.078125,30.575481414794922,20.0
509521,234164397.16896334,9188.275390625,30.5671329498291,20.0
509522,234164417.16877505,9104.2294921875,30.475418090820312,20.0
509523,234164437.1685868,9188.0615234375,30.53314208984375,20.0
509524,234164457.1683984,9351.203125,30.658899307250977,20.0
509525,234164477.16821015,9225.734375,30.56987953186035,20.0
509526,234164497.16802248,9225.1298828125,30.579517364501953,20.0
509527,234164517.16783416,9251.0234375,30.594818115234375,20.0
509528,234164537.16764584,9159.3193359375,30.552452087402344,20.0
509529,234164557.1674576,9205.349609375,30.59335708618164,20.0
509530,234164577.16726923,9278.5888671875,30.61374282836914,20.0
509531,234164597.16708097,9102.5146484375,30.475248336791992,20.0
509532,234164617.16689265,9201.724609375,30.54708480834961,20.0
509533,234164637.16670433,9216.880859375,30.587909698486328,20.0
509534,234164657.16651604,9115.478515625,30.475624084472656,20.0
509535,234164677.16632777,9191.9833984375,30.56157875061035,20.0
509536,234164697.16613945,9142.4658203125,30.513900756835938,20.0
509537,234164717.16595104,9140.0595703125,30.510087966918945,20.0
509538,234164737.16576272,9319.392578125,30.731401443481445,20.0
509539,234164757.16557443,9351.3720703125,30.677406311035156,20.0
509540,234164777.1653861,9163.435546875,30.5590763092041,20.0
509541,234164797.16519785,9260.4521484375,30.58652687072754,20.0
509542,234164817.16500947,9139.8330078125,30.509063720703125,20.0
509543,234164837.16482186,9222.193359375,30.531892776489258,20.0
509544,234164857.16463354,9206.9140625,30.584476470947266,20.0
509545,234164877.16444522,9246.5869140625,30.578372955322266,20.0
509546,234164897.16425693,9173.076171875,30.539031982421875,20.0
509547,234164917.16406867,9207.0498046875,30.54380226135254,20.0
509548,234164937.1638803,9168.853515625,30.530906677246094,20.0
509549,234164957.16369203,9293.34375,30.614980697631836,20.0
509550,234164977.16350374,9195.306640625,30.527103424072266,20.0
509551,234164997.1633154,9218.197265625,30.534923553466797,20.0
509552,234165017.1631271,9150.7919921875,30.484453201293945,20.0
509553,234165037.16293946,9163.4267578125,30.518693923950195,20.0
509554,234165057.16275114,9189.78125,30.516216278076172,20.0
509555,234165077.16256282,9396.4033203125,30.81960678100586,20.0
509556,234165097.1623746,9119.5537109375,30.471525192260742,20.0
509557,234165117.16218618,9219.767578125,30.555953979492188,20.0
509558,234165137.16199794,9190.7548828125,30.56412124633789,20.0
509559,234165157.16180962,9284.1982421875,30.60695457458496,20.0
509560,234165177.1616213,9155.2734375,30.504344940185547,20.0
509561,234165197.1614336,9117.23828125,30.472326278686523,20.0
509562,234165217.16124538,9216.400390625,30.570608139038086,20.0
509563,234165237.16105703,9202.49609375,30.579214096069336,20.0
509564,234165257.16086867,9225.115234375,30.53327178955078,20.0
509565,234165277.16068038,9122.3349609375,30.514522552490234,20.0
509566,234165297.16049212,9187.5595703125,30.502519607543945,20.0
509567,234165317.1603038,9263.953125,30.584962844848633,20.0
509568,234165337.16011608,9165.4931640625,30.480812072753906,20.0
509569,234165357.1599277,9179.5244140625,30.53802490234375,20.0
509570,234165377.15973938,9065.1044921875,30.443260192871094,20.0
509571,234165397.15955105,9258.0947265625,30.581764221191406,20.0
509572,234165417.15936282,9248.7109375,30.555755615234375,20.0
509573,234165437.1591751,9277.603515625,30.57668113708496,20.0
509574,234165457.1589868,9108.935546875,30.47065544128418,20.0
509575,234165477.15879852,9282.2060546875,30.608049392700195,20.0
509576,234165497.1586102,9216.4853515625,30.50682258605957,20.0
509577,234165517.1584219,9181.392578125,30.51594352722168,20.0
509578,234165537.1582336,9248.94921875,30.549785614013672,20.0
509579,234165557.15804595,9202.3251953125,30.536008834838867,20.0
509580,234165577.15785763,9226.9814453125,30.579729080200195,20.0
509581,234165597.15766934,9234.0830078125,30.53358268737793,20.0
509582,234165617.15748098,9158.10546875,30.492998123168945,20.0
509583,234165637.15729275,9203.806640625,30.53731918334961,20.0
509584,234165657.15710506,9168.177734375,30.49497413635254,20.0
509585,234165677.15691674,9169.3837890625,30.476985931396484,20.0
509586,234165697.15672842,9337.400390625,33.23018264770508,20.0
509587,234165717.1565402,9215.078125,30.56857681274414,20.0
509588,234165737.1563524,9113.7890625,30.41910743713379,20.0
509589,234165757.15616417,9221.8251953125,30.513879776000977,20.0
509590,234165777.15597585,9378.4931640625,30.6546573638916,20.0
509591,234165797.15578753,9278.1572265625,30.559261322021484,20.0
509592,234165817.15559927,9169.748046875,30.495956420898438,20.0
509593,234165837.1554116,9229.005859375,30.643789291381836,20.0
509594,234165857.15522325,9180.0927734375,30.54229736328125,20.0
509595,234165877.15503496,9232.9072265625,30.5191650390625,20.0
509596,234165897.1548467,9270.404296875,30.595508575439453,20.0
509597,234165917.15465897,9227.9130859375,30.555953979492188,20.0
509598,234165937.15447068,9136.6669921875,30.449174880981445,20.0
509599,234165957.15428233,9134.6943359375,30.437776565551758,20.0
509600,234165977.15409392,9203.017578125,30.507732391357422,20.0
509601,234165997.15390632,9130.095703125,30.72015953063965,20.0
509602,234166017.153718,9230.2744140625,30.51955795288086,20.0
509603,234166037.15352967,9282.8017578125,31.583507537841797,20.0
509604,234166057.15334198,9102.4921875,30.39028549194336,20.0
509605,234166077.15315375,9199.5625,30.510019302368164,20.0
509606,234166097.1529654,9201.6953125,30.510644912719727,20.0
509607,234166117.1527771,9236.037109375,30.539289474487305,20.0
509608,234166137.15258944,9212.1943359375,30.486631393432617,20.0
509609,234166157.15240112,9212.0732421875,30.4874210357666,20.0
509610,234166177.15221283,9229.8798828125,30.510454177856445,20.0
509611,234166197.15202457,9222.7744140625,30.61903190612793,20.0
509612,234166217.15183687,9175.9560546875,30.46695899963379,20.0
509613,234166237.15164855,9247.5751953125,30.51564598083496,20.0
509614,234166257.15146026,9207.4130859375,30.50863265991211,20.0
509615,234166277.15127254,9221.1279296875,30.504884719848633,20.0
509616,234166297.1510843,9236.8232421875,30.50377655029297,20.0
509617,234166317.15089598,9191.84375,30.512948989868164,20.0
509618,234166337.1507083,9220.486328125,30.507396697998047,20.0
509619,234166357.15051997,9183.3876953125,30.495954513549805,20.0
509620,234166377.15033174,9211.0693359375,30.48793601989746,20.0
509621,234166397.15014395,9117.537109375,30.422338485717773,20.0
509622,234166417.14995572,9252.6845703125,30.53238296508789,20.0
509623,234166437.1497674,9154.1357421875,30.45442771911621,20.0
509624,234166457.1495797,9167.62109375,30.473838806152344,20.0
509625,234166477.14939144,9160.7216796875,30.436260223388672,20.0
509626,234166497.14920315,9299.2236328125,30.835206985473633,20.0
509627,234166517.14901543,9173.7236328125,30.47504234313965,20.0
509628,234166537.14882708,9097.7548828125,30.465858459472656,20.0
509629,234166557.14863884,9298.7099609375,30.560888290405273,20.0
509630,234166577.14845115,9197.986328125,30.490217208862305,20.0
509631,234166597.14826274,9205.8203125,30.517362594604492,20.0
509632,234166617.14807442,9288.7763671875,30.576433181762695,20.0
509633,234166637.14788675,9252.435546875,30.519954681396484,20.0
509634,234166657.14769843,9042.4453125,30.366975784301758,20.0
509635,234166677.14751014,9225.6259765625,30.529890060424805,20.0
509636,234166697.1473225,9229.1171875,30.519655227661133,20.0
509637,234166717.14713413,9202.8408203125,30.52665901184082,20.0
509638,234166737.1469465,9252.201171875,30.532752990722656,20.0
509639,234166757.1467582,9076.07421875,30.40799903869629,20.0
509640,234166777.14656985,9197.505859375,30.48366928100586,20.0
509641,234166797.1463822,9274.6640625,30.531187057495117,20.0
509642,234166817.14619392,9184.62890625,30.464237213134766,20.0
509643,234166837.14600623,9240.794921875,30.52642250061035,20.0
509644,234166857.1458179,9266.6416015625,30.50605010986328,20.0
509645,234166877.14562967,9200.7314453125,30.445886611938477,20.0
509646,234166897.14544192,9212.544921875,30.496591567993164,20.0
509647,234166917.14525366,9246.4912109375,30.510343551635742,20.0
509648,234166937.14506534,9198.94921875,30.460329055786133,20.0
509649,234166957.14487767,9185.8564453125,30.463592529296875,20.0
509650,234166977.14468935,9240.208984375,30.511486053466797,20.0
509651,234166997.14450172,9221.2177734375,30.511213302612305,20.0
509652,234167017.14431337,9134.1806640625,30.443790435791016,20.0
509653,234167037.14412573,9230.3232421875,30.471139907836914,20.0
509654,234167057.1439374,9199.208984375,30.45757484436035,20.0
509655,234167077.1437491,9177.2685546875,30.457788467407227,20.0
509656,234167097.14356142,9313.748046875,30.572174072265625,20.0
509657,234167117.14337316,9233.6962890625,30.48566436767578,20.0
509658,234167137.14318547,9233.7373046875,30.50455093383789,20.0
509659,234167157.14299715,9217.212890625,30.4602108001709,20.0
509660,234167177.1428095,9291.1494140625,30.535417556762695,20.0
509661,234167197.14262113,9237.5498046875,30.471460342407227,20.0
509662,234167217.14243284,9124.2001953125,30.624731063842773,20.0
509663,234167237.14224514,9153.8720703125,30.407764434814453,20.0
509664,234167257.14205673,9211.5703125,30.470842361450195,20.0
509665,234167277.14186913,9174.62109375,30.776123046875,20.0
509666,234167297.1416808,9200.8466796875,30.472448348999023,20.0
509667,234167317.1414931,9247.5380859375,30.489391326904297,20.0
509668,234167337.14130485,9212.3720703125,30.485313415527344,20.0
509669,234167357.1411172,9234.93359375,30.486900329589844,20.0
509670,234167377.14092883,9168.80859375,30.501968383789062,20.0
509671,234167397.14074117,9207.267578125,30.48944664001465,20.0
509672,234167417.1405529,9264.267578125,30.50438690185547,20.0
509673,234167437.14036518,9084.0068359375,30.352872848510742,20.0
509674,234167457.1401769,9149.49609375,30.40813636779785,20.0
509675,234167477.13998926,9236.638671875,30.474945068359375,20.0
509676,234167497.13980094,9276.0908203125,30.67334747314453,20.0
509677,234167517.13961324,9247.7119140625,30.493318557739258,20.0
509678,234167537.139425,9150.4130859375,30.385976791381836,20.0
509679,234167557.13923723,9113.3349609375,30.333852767944336,20.0
509680,234167577.139049,9184.4541015625,30.426610946655273,20.0
509681,234167597.1388613,9257.806640625,30.499897003173828,20.0
509682,234167617.13867298,9212.8935546875,30.434791564941406,20.0
509683,234167637.13848528,9173.6611328125,30.38648796081543,20.0
509684,234167657.13829705,9174.4619140625,30.40595817565918,20.0
509685,234167677.13810933,9227.0322265625,30.484100341796875,20.0
509686,234167697.13792104,9187.9140625,30.4121036529541,20.0
509687,234167717.13773337,9207.3525390625,30.427122116088867,20.0
509688,234167737.13754505,9273.015625,30.502025604248047,20.0
509689,234167757.13735738,9253.724609375,30.50344467163086,20.0
509690,234167777.13716912,9233.9501953125,30.530010223388672,20.0
509691,234167797.13698143,9116.095703125,30.382715225219727,20.0
509692,234167817.13679302,9260.0302734375,30.507747650146484,20.0
509693,234167837.13660532,9173.2900390625,30.4351806640625,20.0
509694,234167857.13641703,9312.5546875,30.70333480834961,20.0
509695,234167877.13622928,9144.470703125,30.366750717163086,20.0
509696,234167897.13604164,9207.826171875,30.424407958984375,20.0
509697,234167917.13585332,9248.009765625,30.449792861938477,20.0
509698,234167937.13566563,9211.75390625,30.454572677612305,20.0
509699,234167957.13547736,9132.359375,30.38982582092285,20.0
509700,234167977.1352897,9235.0966796875,30.47139549255371,20.0
509701,234167997.13510138,9245.2470703125,30.459674835205078,20.0
509702,234168017.13491368,9124.626953125,30.365604400634766,20.0
509703,234168037.13472542,9236.990234375,30.41472816467285,20.0
509704,234168057.1345377,9206.9169921875,30.386646270751953,20.0
509705,234168077.1343501,9245.1259765625,30.47544288635254,20.0
509706,234168097.13416177,9237.1796875,30.4411678314209,20.0
509707,234168117.13397408,9206.5849609375,30.439483642578125,20.0
509708,234168137.13378575,9163.3720703125,30.420963287353516,20.0
509709,234168157.13359815,9274.4423828125,30.481266021728516,20.0
509710,234168177.13341042,9237.2451171875,30.445402145385742,20.0
509711,234168197.13322213,9182.3388671875,30.40385627746582,20.0
509712,234168217.13303444,9226.0439453125,30.405088424682617,20.0
509713,234168237.13284612,9186.990234375,30.43895149230957,20.0
509714,234168257.13265848,9235.849609375,30.444005966186523,20.0
509715,234168277.13247082,9221.482421875,30.448867797851562,20.0
509716,234168297.1322825,9030.2255859375,30.25031852722168,20.0
509717,234168317.13209483,9196.6298828125,30.46729278564453,20.0
509718,234168337.13190654,9149.5244140625,30.33908462524414,20.0
509719,234168357.1317188,9346.5498046875,30.543468475341797,20.0
509720,234168377.13153115,9118.73828125,30.3372802734375,20.0
509721,234168397.1313429,9283.328125,30.470935821533203,20.0
509722,234168417.1311552,9141.4453125,30.352867126464844,20.0
509723,234168437.1309675,9129.689453125,30.332386016845703,20.0
509724,234168457.13077918,9236.9501953125,30.43436050415039,20.0
509725,234168477.13059142,9361.0712890625,30.502229690551758,20.0
