,time_s,flux,flux_err,delta_t
230536,227952438.97026414,7695.00146484375,32.61305236816406,620.0
230537,227952458.97017974,7759.333984375,32.6716194152832,20.0
230538,227952478.97009036,7691.9892578125,32.59022903442383,20.0
230539,227952558.96974775,7718.16064453125,32.59036636352539,80.0
230540,227952578.96966332,7830.982421875,32.68033981323242,20.0
230541,227952598.96957394,7672.67822265625,32.598167419433594,20.0
230542,227952658.96931577,7698.52978515625,32.541908264160156,60.0
230543,227952678.9692313,7700.2421875,32.57533645629883,20.0
230544,227952698.96914187,7642.09814453125,32.53115463256836,20.0
230545,227952718.9690575,7700.75830078125,32.573219299316406,20.0
230546,227952738.96897307,7626.2265625,32.52451705932617,20.0
230547,227952758.9688837,7646.75830078125,32.5042839050293,20.0
230548,227952798.96871492,7709.09716796875,32.573631286621094,40.0
230549,227952818.96862552,7704.29443359375,32.611698150634766,20.0
230550,227952838.96854115,7786.08642578125,32.613548278808594,20.0
230551,227952878.96836737,7698.5693359375,32.538883209228516,40.0
230552,227952898.96828297,7737.1005859375,32.577430725097656,20.0
230553,227952918.96819854,7723.30029296875,32.563358306884766,20.0
230554,227952938.96810907,7699.78857421875,32.553043365478516,20.0
230555,227952958.96802473,7791.26416015625,32.58499526977539,20.0
230556,227952978.96794033,7723.35791015625,32.494285583496094,20.0
230557,227952998.9678509,7707.7890625,32.499542236328125,20.0
230558,227953038.9676821,7692.73046875,32.47100830078125,40.0
230559,227953058.96759263,7731.26318359375,32.492454528808594,20.0
230560,227953078.9675083,7729.28955078125,32.51331329345703,20.0
230561,227953098.9674239,7677.37353515625,32.480743408203125,20.0
230562,227953118.96733448,7704.52099609375,32.4573974609375,20.0
230563,227953138.9672501,7737.298828125,32.522090911865234,20.0
230564,227953158.9671657,7684.404296875,32.46009063720703,20.0
230565,227953178.96707624,7781.43408203125,32.52992248535156,20.0
230566,227953198.9669918,7803.125,32.47980499267578,20.0
230567,227953218.9669074,7676.93408203125,32.48967361450195,20.0
230568,227953238.96681803,7673.39404296875,32.45397186279297,20.0
230569,227953258.96673366,7693.95458984375,32.45419692993164,20.0
230570,227953278.9666493,7766.6865234375,32.80589294433594,20.0
230571,227953298.96655983,7756.3203125,32.498077392578125,20.0
230572,227953318.96647534,7723.80615234375,32.443660736083984,20.0
230573,227953338.966391,7690.1982421875,32.41839599609375,20.0
230574,227953358.9663016,7662.3818359375,32.3951301574707,20.0
230575,227953378.96621722,7698.61572265625,32.4281005859375,20.0
230576,227953398.96613282,7724.55712890625,32.44643020629883,20.0
230577,227953418.9660434,7673.68115234375,32.4099006652832,20.0
230578,227953458.96587467,7682.63818359375,32.38652038574219,40.0
230579,227953478.96578524,7752.70361328125,32.42531204223633,20.0
230580,227953498.9657009,7702.53466796875,32.410640716552734,20.0
230581,227953518.96561652,7668.646484375,32.35737609863281,20.0
230582,227953538.96553206,7622.34765625,32.344337463378906,20.0
230583,227953558.9654426,7777.1142578125,32.435916900634766,20.0
230584,227953578.9653582,7756.5595703125,32.43539047241211,20.0
230585,227953598.96527386,7688.55126953125,32.36943054199219,20.0
230586,227953618.96518445,7693.4130859375,32.33225631713867,20.0
230587,227953638.96510005,7611.2001953125,32.296085357666016,20.0
230588,227953658.96501562,7761.154296875,32.4339714050293,20.0
230589,227953678.96492615,7723.5146484375,32.37269973754883,20.0
230590,227953698.96484178,7739.5927734375,32.388328552246094,20.0
230591,227953718.9647574,7677.51025390625,32.330406188964844,20.0
230592,227953738.964673,7699.15869140625,32.34920120239258,20.0
230593,227953758.9645836,7807.6806640625,32.44776916503906,20.0
230594,227953778.96449915,7760.025390625,32.371192932128906,20.0
230595,227953798.96441472,7719.56201171875,32.357032775878906,20.0
230596,227953838.96424097,7708.91162109375,32.35456466674805,40.0
230597,227953858.9641566,7728.341796875,32.35235595703125,20.0
230598,227953878.9640722,7698.03759765625,32.29705047607422,20.0
230599,227953898.9639828,7675.0537109375,32.28126525878906,20.0
230600,227953918.96389836,7652.6640625,32.25810623168945,20.0
230601,227953938.96381393,7688.19921875,32.29839324951172,20.0
230602,227953958.96372452,7774.650390625,32.36932373046875,20.0
230603,227953978.96364012,7553.78173828125,32.18815994262695,20.0
230604,227953998.96355575,7699.0654296875,32.31455612182617,20.0
230605,227954018.9634714,7718.26318359375,32.30988311767578,20.0
230606,227954038.96338195,7738.99755859375,32.31681442260742,20.0
230607,227954058.96329755,7788.65625,32.359642028808594,20.0
230608,227954078.96321324,7759.67822265625,32.35245895385742,20.0
230609,227954098.9631238,7693.6103515625,32.24629211425781,20.0
230610,227954118.9630394,7705.05517578125,32.2467155456543,20.0
230611,227954138.96295506,7721.18359375,32.28053283691406,20.0
230612,227954158.96287063,7708.1982421875,32.30989074707031,20.0
230613,227954198.9626968,7722.5703125,32.287391662597656,40.0
230614,227954218.9626124,7790.57373046875,32.32807159423828,20.0
230615,227954238.962528,7667.322265625,32.229576110839844,20.0
230616,227954258.9624386,7703.51171875,32.26533126831055,20.0
230617,227954278.96235418,7595.64404296875,32.14570999145508,20.0
230618,227954298.96226975,7851.13330078125,32.36288833618164,20.0
230619,227954318.96218535,7653.3388671875,32.19694519042969,20.0
230620,227954338.96209592,7680.08056640625,32.22880172729492,20.0
230621,227954358.96201158,7722.4541015625,32.232421875,20.0
230622,227954378.9619272,7591.431640625,32.14945602416992,20.0
230623,227954398.96184278,7707.88916015625,32.22827911376953,20.0
230624,227954418.9617533,7652.0673828125,32.20994567871094,20.0
230625,227954438.9616689,7686.9404296875,32.19582748413086,20.0
230626,227954458.96158454,7714.8603515625,32.23221206665039,20.0
230627,227954478.96150017,7746.8837890625,32.25218963623047,20.0
230628,227954498.96141073,7669.48291015625,32.16484832763672,20.0
230629,227954518.9613263,7607.62841796875,32.136627197265625,20.0
230630,227954538.96124187,7744.2998046875,32.26454162597656,20.0
230631,227954558.96115747,7687.1103515625,32.180973052978516,20.0
230632,227954578.9610681,7646.80810546875,32.145259857177734,20.0
230633,227954598.96098372,7595.6494140625,32.10880661010742,20.0
230634,227954618.96089935,7905.66845703125,32.35978698730469,20.0
230635,227954638.96081495,7731.7587890625,32.21995544433594,20.0
230636,227954658.9607255,7774.45166015625,32.26424026489258,20.0
230637,227954678.96064112,7671.052734375,32.15936279296875,20.0
230638,227954738.96038303,7750.97314453125,32.154083251953125,60.0
230639,227954758.96029863,7688.71923828125,32.18990707397461,20.0
230640,227954778.9602142,7651.048828125,32.131507873535156,20.0
230641,227954798.96012977,7637.27099609375,32.11709213256836,20.0
230642,227954818.96004537,7564.91552734375,32.06797409057617,20.0
230643,227954838.959956,7775.1796875,32.19548034667969,20.0
230644,227954858.9598716,7674.08837890625,32.13621139526367,20.0
230645,227954878.9597872,7725.21484375,32.14302062988281,20.0
230646,227954898.95970276,7780.89794921875,32.18798828125,20.0
230647,227954918.9596133,7655.267578125,32.08953094482422,20.0
230648,227954938.95952892,7586.28955078125,32.020957946777344,20.0
230649,227954958.95944458,7674.7890625,32.111907958984375,20.0
230650,227954978.95936018,7690.1064453125,32.12675094604492,20.0
230651,227954998.95927578,7759.27490234375,32.12886428833008,20.0
230652,227955018.95918632,7698.2392578125,32.087032318115234,20.0
230653,227955038.9591019,7717.1884765625,32.1161994934082,20.0
230654,227955058.95901754,7727.37939453125,32.14328384399414,20.0
230655,227955078.95893314,7700.45751953125,32.080936431884766,20.0
230656,227955098.9588437,7735.3994140625,32.1375846862793,20.0
230657,227955118.95875937,7683.55419921875,32.095096588134766,20.0
230658,227955138.9586749,7722.9775390625,32.11079406738281,20.0
230659,227955158.95859048,7698.3828125,32.0809211730957,20.0
230660,227955178.95850614,7713.95458984375,32.09375762939453,20.0
230661,227955198.9584167,7711.22021484375,32.07734298706055,20.0
230662,227955218.9583323,7712.34228515625,32.07740020751953,20.0
230663,227955238.95824796,7704.12548828125,32.07813262939453,20.0
230664,227955258.95816353,7769.12890625,32.1188850402832,20.0
230665,227955278.95807907,7630.07421875,32.01205825805664,20.0
230666,227955298.9579897,7690.96435546875,32.06013107299805,20.0
230667,227955318.9579054,7720.9775390625,32.06892776489258,20.0
230668,227955338.957821,7782.322265625,32.12953567504883,20.0
230669,227955358.95773664,7678.701171875,32.0458984375,20.0
230670,227955378.95765227,7637.6240234375,32.01008987426758,20.0
230671,227955398.9575628,7708.1669921875,32.07727813720703,20.0
230672,227955418.95747837,7748.71142578125,32.0778923034668,20.0
230673,227955438.95739397,7670.1396484375,32.012977600097656,20.0
230674,227955458.95730957,7702.701171875,32.012969970703125,20.0
230675,227955478.95722523,7737.33349609375,32.07070541381836,20.0
230676,227955498.95713583,7758.10546875,32.02507781982422,20.0
230677,227955518.9570514,7574.865234375,31.941604614257812,20.0
230678,227955538.95696697,7703.552734375,32.03908157348633,20.0
230679,227955558.95688257,7765.18798828125,32.045928955078125,20.0
230680,227955578.95679817,7724.6904296875,32.04220962524414,20.0
230681,227955598.95671383,7674.7109375,31.981416702270508,20.0
230682,227955618.9566244,7758.9345703125,32.31673812866211,20.0
230683,227955638.95653996,7716.0859375,32.050819396972656,20.0
230684,227955658.95645553,7615.052734375,31.937820434570312,20.0
230685,227955678.95637113,7804.97314453125,32.08705520629883,20.0
230686,227955698.9562868,7713.0302734375,32.01823425292969,20.0
230687,227955718.95619738,7727.392578125,32.0184440612793,20.0
230688,227955738.956113,7737.60986328125,31.96819496154785,20.0
230689,227955758.95602855,7694.4033203125,31.932931900024414,20.0
230690,227955778.9559441,7708.83447265625,31.979625701904297,20.0
230691,227955798.95585972,7669.79736328125,31.937896728515625,20.0
230692,227955818.95577538,7667.11865234375,31.965606689453125,20.0
230693,227955838.95568594,7728.09912109375,31.963581085205078,20.0
230694,227955858.95560154,7755.34326171875,31.998125076293945,20.0
230695,227955878.9555171,7710.4453125,31.967853546142578,20.0
230696,227955898.95543268,7680.12255859375,31.949161529541016,20.0
230697,227955918.95534834,7625.25634765625,31.913938522338867,20.0
230698,227955938.955264,7700.56103515625,31.966333389282227,20.0
230699,227955958.95517465,7641.23974609375,31.909130096435547,20.0
230700,227955978.9550903,7742.21435546875,31.96966552734375,20.0
230701,227955998.95500588,7766.81640625,32.34980010986328,20.0
230702,227956018.95492145,7711.91357421875,31.941354751586914,20.0
230703,227956038.954837,7725.5966796875,31.92838478088379,20.0
230704,227956058.95475265,7709.9921875,31.94744110107422,20.0
230705,227956078.95466828,7819.3017578125,32.043373107910156,20.0
230706,227956098.95457888,7739.892578125,31.964916229248047,20.0
230707,227956118.95449448,7645.7578125,31.92677879333496,20.0
230708,227956138.95441005,7732.1474609375,31.93824577331543,20.0
230709,227956158.95432562,7742.5625,31.9571475982666,20.0
230710,227956178.95424125,7712.68994140625,31.914257049560547,20.0
230711,227956198.95415685,7788.9228515625,31.95650291442871,20.0
230712,227956218.95407245,7732.8037109375,31.957948684692383,20.0
230713,227956238.95398307,7742.2080078125,31.951723098754883,20.0
230714,227956258.95389864,7612.451171875,31.829729080200195,20.0
230715,227956278.9538142,7701.84521484375,31.908615112304688,20.0
230716,227956298.95372984,7793.44921875,31.969589233398438,20.0
230717,227956318.95364544,7627.986328125,31.86504364013672,20.0
230718,227956338.95356104,7690.97607421875,31.86773109436035,20.0
230719,227956378.95338723,7703.4384765625,31.863943099975586,40.0
230720,227956398.9533028,7627.43359375,31.872793197631836,20.0
230721,227956418.9532184,7728.388671875,31.88275909423828,20.0
230722,227956438.953134,7762.2578125,31.928285598754883,20.0
230723,227956458.95304966,7724.31201171875,31.900348663330078,20.0
230724,227956478.9529653,7640.00390625,31.790882110595703,20.0
230725,227956518.95279643,7664.978515625,31.825075149536133,40.0
230726,227956538.95270696,7753.9052734375,31.896717071533203,20.0
230727,227956558.95262268,7597.1064453125,31.80242347717285,20.0
230728,227956578.9525383,7635.6630859375,31.802173614501953,20.0
230729,227956598.95245397,7685.3583984375,31.810386657714844,20.0
230730,227956638.9522851,7699.07568359375,31.824682235717773,40.0
230731,227956658.95220074,7771.06689453125,31.90265464782715,20.0
230732,227956678.95211634,7742.63427734375,31.881975173950195,20.0
230733,227956698.95202693,7697.716796875,31.815309524536133,20.0
230734,227956718.95194256,7688.400390625,31.814096450805664,20.0
230735,227956738.95185822,7715.234375,31.86811637878418,20.0
230736,227956758.95177373,7711.24462890625,31.825429916381836,20.0
230737,227956778.9516893,7729.59521484375,31.856292724609375,20.0
230738,227956798.9516049,7693.888671875,31.809677124023438,20.0
230739,227956818.95152056,7798.29150390625,31.853347778320312,20.0
230740,227956838.9514362,7686.65625,31.790157318115234,20.0
230741,227956858.9513518,7758.56591796875,31.838539123535156,20.0
230742,227956878.95126233,7711.689453125,31.804710388183594,20.0
230743,227956898.9511779,7747.88134765625,31.828418731689453,20.0
230744,227956918.9510935,7682.50244140625,31.768592834472656,20.0
230745,227956938.95100915,7684.3828125,31.77821922302246,20.0
230746,227956958.95092475,7710.3544921875,31.788349151611328,20.0
230747,227956978.95084035,7718.66943359375,31.773576736450195,20.0
230748,227956998.95075592,7676.85693359375,31.732927322387695,20.0
230749,227957018.9506715,7769.05224609375,31.841646194458008,20.0
230750,227957038.95058712,7682.94287109375,31.783523559570312,20.0
230751,227957058.95050278,7822.33349609375,31.858009338378906,20.0
230752,227957078.95041335,7609.548828125,31.68851661682129,20.0
230753,227957098.95032895,7665.26416015625,31.717945098876953,20.0
230754,227957118.95024452,7738.31103515625,31.78127670288086,20.0
230755,227957138.9501601,7694.68115234375,31.76890754699707,20.0
230756,227957158.95007572,7788.83935546875,31.843461990356445,20.0
230757,227957178.94999138,7772.365234375,31.78643035888672,20.0
230758,227957198.9499071,7787.6728515625,31.80674171447754,20.0
230759,227957218.9498227,7750.13720703125,31.747072219848633,20.0
230760,227957238.94973826,7693.4140625,31.729387283325195,20.0
230761,227957258.94965383,7758.2900390625,31.77838897705078,20.0
230762,227957278.94956943,7716.91748046875,31.752765655517578,20.0
230763,227957298.94948006,7708.34619140625,31.740732192993164,20.0
230764,227957318.9493957,7698.6640625,31.730173110961914,20.0
230765,227957338.94931126,7724.5849609375,31.75310516357422,20.0
230766,227957358.94922683,7758.48193359375,31.785564422607422,20.0
230767,227957378.9491424,7698.11865234375,31.729536056518555,20.0
230768,227957398.94905803,7644.0263671875,31.65943145751953,20.0
230769,227957418.9489737,7742.27294921875,31.74623680114746,20.0
230770,227957438.9488893,7779.8408203125,31.749359130859375,20.0
230771,227957458.9488049,7708.63818359375,31.706592559814453,20.0
230772,227957478.9487205,7677.10302734375,31.664152145385742,20.0
230773,227957498.94863608,7655.67236328125,31.732236862182617,20.0
230774,227957518.94855165,7816.10791015625,31.751049041748047,20.0
230775,227957538.94846725,7827.4228515625,31.786067962646484,20.0
230776,227957558.94838285,7649.7529296875,31.647123336791992,20.0
230777,227957578.94829348,7640.77587890625,31.675138473510742,20.0
230778,227957598.94820914,7809.54248046875,31.76197052001953,20.0
230779,227957618.94812468,7786.6455078125,31.7578125,20.0
230780,227957638.94804025,7724.7529296875,31.683073043823242,20.0
230781,227957658.94795585,7724.703125,31.702255249023438,20.0
230782,227957678.94787148,7771.88232421875,31.74182891845703,20.0
230783,227957698.9477871,7782.27880859375,31.71495246887207,20.0
230784,227957718.9477027,7717.0732421875,31.712297439575195,20.0
230785,227957738.94761828,7691.533203125,31.675155639648438,20.0
230786,227957758.94753385,7743.3798828125,31.693235397338867,20.0
230787,227957778.94744945,7723.12255859375,31.673648834228516,20.0
230788,227957798.94736508,7734.1484375,31.713172912597656,20.0
230789,227957818.94728076,7685.1796875,31.620357513427734,20.0
230790,227957838.94719645,7672.072265625,31.629053115844727,20.0
230791,227957858.94711202,7694.60693359375,31.648895263671875,20.0
230792,227957878.9470276,7759.74609375,31.691640853881836,20.0
230793,227957898.9469432,7665.3701171875,31.620174407958984,20.0
230794,227957918.9468588,7687.22705078125,31.609132766723633,20.0
230795,227957938.94677442,7723.728515625,31.661558151245117,20.0
230796,227957958.94668505,7769.0791015625,31.68964385986328,20.0
230797,227957978.94660062,7663.24755859375,31.604778289794922,20.0
230798,227958158.945841,7781.1962890625,31.647119522094727,180.0
230799,227958178.94575667,7745.5869140625,31.651887893676758,20.0
230800,227958198.94567227,7617.95703125,31.562089920043945,20.0
230801,227958218.94558787,7685.63525390625,31.570104598999023,20.0
230802,227958238.94550344,7700.5263671875,31.6177921295166,20.0
230803,227958258.945419,7682.603515625,31.558008193969727,20.0
230804,227958278.94533464,7736.26123046875,31.612625122070312,20.0
230805,227958298.94525024,7764.5712890625,31.6143741607666,20.0
230806,227958318.94516584,7682.18017578125,31.532447814941406,20.0
230807,227958338.9450815,7653.71142578125,31.51498794555664,20.0
230808,227958358.94499707,7726.55322265625,31.632780075073242,20.0
230809,227958378.9449126,7748.3388671875,31.60488510131836,20.0
230810,227958398.94482827,7744.083984375,31.588726043701172,20.0
230811,227958418.94474387,7675.1279296875,31.55710220336914,20.0
230812,227958438.94465956,7741.26123046875,31.601097106933594,20.0
230813,227958458.9445752,7636.56103515625,31.535293579101562,20.0
230814,227958478.94449076,7687.32177734375,31.560333251953125,20.0
230815,227958498.94440633,7752.3388671875,31.578710556030273,20.0
230816,227958518.944322,7644.55810546875,31.533647537231445,20.0
230817,227958538.94423762,7688.8203125,31.523521423339844,20.0
230818,227958558.94415322,7731.8876953125,31.588245391845703,20.0
230819,227958578.94406882,7779.47607421875,31.587909698486328,20.0
230820,227958598.9439844,7619.98876953125,31.469310760498047,20.0
230821,227958618.94389996,7676.734375,31.496957778930664,20.0
230822,227958638.9438156,7845.529296875,31.654457092285156,20.0
230823,227958658.94373122,7771.982421875,31.553010940551758,20.0
230824,227958678.94364682,7743.14794921875,31.535593032836914,20.0
230825,227958698.94356245,7744.2998046875,31.545190811157227,20.0
230826,227958718.94347802,7687.53564453125,31.530866622924805,20.0
230827,227958738.9433936,7741.5166015625,31.555469512939453,20.0
230828,227958758.94330922,7614.9501953125,31.451801300048828,20.0
230829,227958778.94322485,7833.95458984375,31.630598068237305,20.0
230830,227958798.94314045,7726.32568359375,31.536739349365234,20.0
230831,227958818.94305608,7631.54833984375,31.47293472290039,20.0
230832,227958838.94297174,7677.57080078125,31.47333335876465,20.0
230833,227958858.94288725,7744.67724609375,31.546600341796875,20.0
230834,227958878.94280282,7806.84716796875,31.586042404174805,20.0
230835,227958898.94271842,7787.396484375,31.550634384155273,20.0
230836,227958918.94263408,7629.033203125,31.44291114807129,20.0
230837,227958938.9425497,7766.66015625,31.5436954498291,20.0
230838,227958958.9424653,7756.48583984375,31.534717559814453,20.0
230839,227958978.94238088,7742.439453125,31.533172607421875,20.0
230840,227958998.94229645,7708.4912109375,31.486431121826172,20.0
230841,227959018.94221205,7763.30810546875,31.5557804107666,20.0
230842,227959038.9421277,7679.6640625,31.464109420776367,20.0
