,time_s,flux,flux_err,delta_t
231160,227969938.89705876,7696.13623046875,31.064899444580078,1259.99
231161,227969958.89697936,7731.6201171875,31.099029541015625,20.0
231162,227969978.89689493,7704.7197265625,31.07062530517578,20.0
231163,227969998.8968156,7684.52392578125,31.0699520111084,20.0
231164,227970018.89673626,7737.4580078125,31.10431480407715,20.0
231165,227970038.89665186,7704.73193359375,31.084726333618164,20.0
231166,227970078.89649317,7731.2412109375,31.08165168762207,40.0
231167,227970098.89640874,7730.46240234375,31.112205505371094,20.0
231168,227970118.89632934,7735.86328125,31.09723663330078,20.0
231169,227970138.89624494,7729.62451171875,31.08816146850586,20.0
231170,227970158.89616558,7734.1865234375,31.078399658203125,20.0
231171,227970178.89608625,7769.57568359375,31.108739852905273,20.0
231172,227970198.89600188,7622.3515625,31.004465103149414,20.0
231173,227970218.89592248,7635.85009765625,30.996858596801758,20.0
231174,227970238.8958431,7716.3935546875,31.06328773498535,20.0
231175,227970258.89575863,7718.23681640625,31.05409812927246,20.0
231176,227970278.89567932,7807.78466796875,31.144655227661133,20.0
231177,227970318.8955156,7692.001953125,31.079811096191406,40.0
231178,227970338.8954362,7731.86376953125,31.11578369140625,20.0
231179,227970358.89535683,7668.84375,31.060266494750977,20.0
231180,227970398.8951932,7771.2490234375,31.109498977661133,40.0
231181,227970418.8951138,7803.09130859375,31.128253936767578,20.0
231182,227970518.89470688,7721.92724609375,31.11063575744629,100.0
231183,227970558.89454824,7709.6123046875,31.217105865478516,40.0
231184,227970578.89446378,7781.208984375,31.217161178588867,20.0
231185,227970598.89438438,7716.74072265625,31.070938110351562,20.0
231186,227970618.894305,7673.50830078125,31.079355239868164,20.0
231187,227970638.89422062,7692.7470703125,31.043230056762695,20.0
231188,227970658.8941413,7758.45654296875,31.07693099975586,20.0
231189,227970678.89406192,7762.80078125,31.12062644958496,20.0
231190,227970698.8939775,7715.4140625,31.088356018066406,20.0
231191,227970718.8938981,7667.47802734375,31.058639526367188,20.0
231192,227970738.89381874,7643.26220703125,31.009475708007812,20.0
231193,227970758.89373437,7707.30029296875,31.062692642211914,20.0
231194,227970778.89365503,7714.4521484375,31.07204818725586,20.0
231195,227970798.89357567,7718.90625,31.038997650146484,20.0
231196,227970818.89349127,7716.7724609375,31.072738647460938,20.0
231197,227970838.89341187,7703.96875,31.122547149658203,20.0
231198,227970858.89333245,7665.50439453125,31.060781478881836,20.0
231199,227970878.89325315,7725.986328125,31.064847946166992,20.0
231200,227970898.89316875,7694.08203125,31.06571388244629,20.0
231201,227970918.89308938,7760.8505859375,31.098918914794922,20.0
231202,227970938.89301005,7714.52099609375,31.04070472717285,20.0
231203,227970958.89292562,7663.35791015625,31.02170753479004,20.0
231204,227970978.8928462,7753.53857421875,31.133771896362305,20.0
231205,227970998.89276692,7767.4208984375,31.109058380126953,20.0
231206,227971018.8926826,7689.55908203125,31.052650451660156,20.0
231207,227971038.89260325,7754.7080078125,31.081388473510742,20.0
231208,227971058.89252388,7752.7587890625,31.1020450592041,20.0
231209,227971078.89244446,7720.8876953125,31.0969181060791,20.0
231210,227971098.89236003,7733.50830078125,31.072147369384766,20.0
231211,227971118.8922807,7721.9580078125,31.072792053222656,20.0
231212,227971138.89220136,7701.52001953125,31.05270004272461,20.0
231213,227971158.892117,7668.080078125,31.04329490661621,20.0
231214,227971178.8920376,7722.27197265625,31.04664421081543,20.0
231215,227971198.8919582,7701.33837890625,31.064481735229492,20.0
231216,227971218.8918788,7765.18798828125,31.114076614379883,20.0
231217,227971238.89179444,7602.94091796875,30.97028350830078,20.0
231218,227971258.89171508,7754.12939453125,31.06659507751465,20.0
231219,227971278.89163572,7678.67333984375,31.040170669555664,20.0
231220,227971298.89155135,7701.681640625,31.08382797241211,20.0
231221,227971338.89139256,7723.248046875,31.060094833374023,40.0
231222,227971358.89131323,7736.16162109375,31.069290161132812,20.0
231223,227971378.8912288,7673.52880859375,31.02210807800293,20.0
231224,227971438.89099073,7673.02734375,31.048368453979492,60.0
231225,227971458.89090627,7773.80908203125,31.13003158569336,20.0
231226,227971478.8908269,7711.74169921875,31.071041107177734,20.0
231227,227971498.89074755,7734.51318359375,31.081514358520508,20.0
231228,227971518.8906632,7667.779296875,31.03824234008789,20.0
231229,227971538.89058387,7699.32666015625,31.063032150268555,20.0
231230,227971558.8905045,7776.53173828125,31.109895706176758,20.0
231231,227971578.8904251,7690.62744140625,31.04400634765625,20.0
231232,227971598.89034063,7785.47509765625,31.122955322265625,20.0
231233,227971618.89026138,7698.08251953125,31.07547378540039,20.0
231234,227971638.89018205,7771.03076171875,31.117923736572266,20.0
231235,227971658.8901027,7674.0673828125,31.03129005432129,20.0
231236,227971678.89001837,7746.3251953125,31.0898380279541,20.0
231237,227971698.88993895,7771.33447265625,31.065587997436523,20.0
231238,227971718.88985956,7764.5078125,31.087697982788086,20.0
231239,227971738.8897802,7771.00927734375,31.120820999145508,20.0
231240,227971758.8896958,7706.15673828125,31.08388328552246,20.0
231241,227971778.88961646,7710.3408203125,31.061521530151367,20.0
231242,227971798.8895371,7692.24609375,31.050119400024414,20.0
231243,227971818.8894577,7693.3232421875,31.0439510345459,20.0
231244,227971838.88937327,7694.47607421875,31.019330978393555,20.0
231245,227971858.88929388,7720.02978515625,31.071901321411133,20.0
231246,227971878.88921458,7688.0478515625,31.01097869873047,20.0
231247,227971898.88913524,7666.30029296875,31.03851890563965,20.0
231248,227971918.88905084,7729.68212890625,31.071638107299805,20.0
231249,227971938.88897145,7761.79150390625,31.103179931640625,20.0
231250,227971958.888892,7723.3759765625,31.067655563354492,20.0
231251,227971998.88872832,7724.0947265625,31.063232421875,40.0
231252,227972018.88864896,7732.9921875,31.089061737060547,20.0
231253,227972038.88856956,7712.830078125,31.038423538208008,20.0
231254,227972058.88849017,7743.6357421875,31.097097396850586,20.0
231255,227972078.88840574,7694.9140625,31.351377487182617,20.0
231256,227972118.88824707,7718.49267578125,31.040054321289062,40.0
231257,227972138.88816768,7739.95556640625,31.078927993774414,20.0
231258,227972158.88808835,7705.12255859375,31.03927993774414,20.0
231259,227972178.888004,7678.71630859375,31.0181827545166,20.0
231260,227972238.88776582,7736.88134765625,31.06126594543457,60.0
231261,227972258.88768148,7722.90869140625,31.108041763305664,20.0
231262,227972278.8876022,7711.1396484375,31.052135467529297,20.0
231263,227972298.88752285,7747.19482421875,31.090253829956055,20.0
231264,227972398.88712093,7714.55322265625,31.18196678161621,100.0
231265,227972418.88704163,7786.28955078125,31.069210052490234,20.0
231266,227972438.88695717,7655.7578125,31.031965255737305,20.0
231267,227972498.88671908,7679.3388671875,30.997270584106445,60.0
231268,227972518.8866397,7750.42919921875,31.086524963378906,20.0
231269,227972538.88655534,7710.71484375,31.065004348754883,20.0
231270,227972558.88647595,7655.47998046875,31.00248146057129,20.0
231271,227972578.88639656,7680.09716796875,31.04281997680664,20.0
231272,227972598.8863172,7671.6396484375,31.022865295410156,20.0
231273,227972618.8862378,7756.90087890625,31.09281349182129,20.0
231274,227972638.88615346,7716.34326171875,31.041248321533203,20.0
231275,227972658.88607413,7693.1259765625,31.013999938964844,20.0
231276,227972678.88599473,7621.1728515625,30.964279174804688,20.0
231277,227972698.8859153,7784.2109375,31.098838806152344,20.0
231278,227972718.88583592,7724.3212890625,31.08716583251953,20.0
231279,227972738.88575155,7776.232421875,31.097002029418945,20.0
231280,227972758.88567224,7701.53173828125,31.025474548339844,20.0
231281,227972778.88559288,7824.14453125,31.1375789642334,20.0
231282,227972798.88551345,7745.04248046875,31.058956146240234,20.0
231283,227972818.88543406,7741.09228515625,31.08296775817871,20.0
231284,227972838.88534966,7661.998046875,31.00870132446289,20.0
231285,227972878.88519105,7719.806640625,31.042388916015625,40.0
231286,227972898.88511175,7749.13134765625,31.09822654724121,20.0
231287,227972958.88486853,7673.009765625,31.020498275756836,60.0
231288,227972978.88478917,7699.1865234375,31.047927856445312,20.0
231289,227972998.88470986,7782.79736328125,31.10633659362793,20.0
231290,227973018.88463053,7634.55078125,31.0051326751709,20.0
231291,227973038.88454613,7755.73388671875,31.05397605895996,20.0
231292,227973058.88446674,7601.2294921875,31.03833770751953,20.0
231293,227973078.8843873,7659.556640625,31.0125789642334,20.0
231294,227973098.88430795,7702.43359375,31.019508361816406,20.0
231295,227973118.88422862,7651.93994140625,30.997465133666992,20.0
231296,227973138.88414925,7611.7265625,30.960416793823242,20.0
231297,227973158.88406485,7729.73388671875,31.064573287963867,20.0
231298,227973178.88398546,7746.2705078125,31.063156127929688,20.0
231299,227973198.88390607,7687.92626953125,31.021892547607422,20.0
231300,227973218.88382673,7689.59814453125,31.008625030517578,20.0
231301,227973238.8837474,7711.923828125,31.08005142211914,20.0
231302,227973258.883663,7713.36962890625,31.06395149230957,20.0
231303,227973278.88358364,7765.1796875,31.095396041870117,20.0
231304,227973298.88350424,7701.1962890625,31.073163986206055,20.0
231305,227973318.88342482,7772.6103515625,31.08827781677246,20.0
231306,227973338.88334548,7600.7001953125,30.96273422241211,20.0
231307,227973358.88326612,7717.85107421875,31.029052734375,20.0
231308,227973378.88318172,7754.8037109375,31.099082946777344,20.0
231309,227973398.88310242,7722.77685546875,31.05689239501953,20.0
231310,227973418.883023,7799.1162109375,31.10972785949707,20.0
231311,227973438.8829436,7726.7919921875,31.039003372192383,20.0
231312,227973458.88286427,7739.01904296875,31.039594650268555,20.0
231313,227973478.88278487,7742.86767578125,31.060195922851562,20.0
231314,227973498.88270563,7714.3701171875,31.035537719726562,20.0
231315,227973518.88262126,7691.47119140625,31.016611099243164,20.0
231316,227973538.88254187,7617.19384765625,30.993473052978516,20.0
231317,227973558.88246244,7751.9365234375,31.09979820251465,20.0
231318,227973578.8823831,7670.54150390625,31.011276245117188,20.0
231319,227973598.8823038,7625.03564453125,30.95446014404297,20.0
231320,227973618.88222444,7625.373046875,30.95892333984375,20.0
231321,227973638.88214004,7684.3623046875,31.04323959350586,20.0
231322,227973658.8820607,7718.3876953125,31.045318603515625,20.0
231323,227973678.88198128,7775.5263671875,31.063974380493164,20.0
231324,227973698.8819019,7727.4306640625,31.04882049560547,20.0
231325,227973718.88182253,7711.521484375,31.02579689025879,20.0
231326,227973738.88174316,7668.6015625,31.0217342376709,20.0
231327,227973758.88166383,7707.87890625,31.023378372192383,20.0
231328,227973778.8815795,7744.72998046875,31.066160202026367,20.0
231329,227973798.88150007,7665.69580078125,31.031993865966797,20.0
231330,227973818.88142067,7714.5595703125,31.0333251953125,20.0
231331,227973838.8813413,7606.47900390625,30.931245803833008,20.0
231332,227973858.88126194,7795.9091796875,31.096900939941406,20.0
231333,227973878.8811826,7729.98828125,31.035625457763672,20.0
231334,227973898.88110325,7719.333984375,31.081262588500977,20.0
231335,227973918.88101882,7733.6318359375,31.045501708984375,20.0
231336,227973938.8809394,7732.01171875,31.033666610717773,20.0
231337,227973958.88086003,7699.56591796875,31.034099578857422,20.0
231338,227973978.8807807,7719.8076171875,31.085411071777344,20.0
231339,227973998.88070136,7748.0458984375,31.04949951171875,20.0
231340,227974018.880622,7716.9775390625,31.03230857849121,20.0
231341,227974038.8805426,7773.2197265625,31.0689754486084,20.0
231342,227974058.88046315,7627.59375,30.97182846069336,20.0
231343,227974078.8803788,7686.45654296875,31.019771575927734,20.0
231344,227974098.88029948,7665.22509765625,31.00609016418457,20.0
231345,227974118.88022012,7709.64501953125,31.034204483032227,20.0
231346,227974138.8801408,7712.130859375,31.01456069946289,20.0
231347,227974158.8800615,7693.70556640625,31.030729293823242,20.0
231348,227974178.87998208,7791.5654296875,31.071186065673828,20.0
231349,227974198.87990272,7719.49560546875,31.027090072631836,20.0
231350,227974218.87982336,7618.54736328125,31.01711082458496,20.0
231351,227974238.879739,7805.71630859375,31.130552291870117,20.0
231352,227974258.87965962,7642.4912109375,30.960208892822266,20.0
231353,227974278.87958026,7737.94921875,31.06734848022461,20.0
231354,227974298.87950087,7761.37255859375,31.084020614624023,20.0
231355,227974318.87942144,7744.662109375,31.007261276245117,20.0
231356,227974338.87934214,7748.46826171875,31.05359649658203,20.0
231357,227974358.8792628,7739.83203125,31.074129104614258,20.0
231358,227974378.87918344,7625.1884765625,30.973979949951172,20.0
231359,227974398.87910408,7769.3955078125,31.057960510253906,20.0
231360,227974418.87901965,7735.79638671875,31.013212203979492,20.0
231361,227974438.87894022,7627.3056640625,30.956769943237305,20.0
231362,227974458.8788609,7741.62158203125,31.060169219970703,20.0
231363,227974478.87878153,7591.15234375,30.9578857421875,20.0
231364,227974498.87870216,7693.4755859375,31.008586883544922,20.0
231365,227974518.87862283,7717.677734375,31.023649215698242,20.0
231366,227974538.87854344,7664.6904296875,30.969987869262695,20.0
231367,227974558.87846404,7677.0693359375,30.968618392944336,20.0
231368,227974578.8783847,7700.26611328125,30.985286712646484,20.0
231369,227974598.87830535,7721.97900390625,31.058448791503906,20.0
231370,227974618.87822095,7696.388671875,31.006250381469727,20.0
231371,227974638.8781416,7784.1728515625,31.121116638183594,20.0
231372,227974658.87806222,7676.3310546875,30.986478805541992,20.0
231373,227974678.8779828,7637.04296875,30.969484329223633,20.0
231374,227974698.87790343,7665.71826171875,30.99300193786621,20.0
231375,227974718.87782407,7861.61279296875,31.115751266479492,20.0
231376,227974738.87774473,7670.55615234375,30.98151969909668,20.0
231377,227974758.87766546,7730.982421875,31.026512145996094,20.0
231378,227974778.8775861,7805.294921875,31.126508712768555,20.0
231379,227974798.87750667,7700.73388671875,31.007869720458984,20.0
231380,227974818.87742233,7675.45556640625,30.987504959106445,20.0
231381,227974838.87734297,7818.77587890625,31.10107421875,20.0
231382,227974858.8772636,7712.6650390625,30.998868942260742,20.0
231383,227974878.87718427,7681.40771484375,30.98018455505371,20.0
231384,227974898.87710485,7692.79443359375,31.00896644592285,20.0
231385,227974918.87702546,7744.201171875,31.05373191833496,20.0
231386,227974938.87694612,7726.5615234375,30.993736267089844,20.0
231387,227974958.87686676,7602.31396484375,30.915647506713867,20.0
231388,227974978.8767874,7669.322265625,30.975887298583984,20.0
231389,227974998.87670806,7718.27880859375,31.00835609436035,20.0
231390,227975018.8766287,7774.77978515625,31.080888748168945,20.0
231391,227975038.8765493,7663.53857421875,30.96633529663086,20.0
231392,227975058.87646988,7761.60107421875,31.056467056274414,20.0
231393,227975078.87638548,7620.2578125,30.923662185668945,20.0
231394,227975098.87630618,7713.29541015625,30.980735778808594,20.0
231395,227975118.87622684,7794.85302734375,31.08287239074707,20.0
231396,227975138.87614748,7660.97607421875,31.003742218017578,20.0
231397,227975158.87606806,7703.89892578125,31.00400733947754,20.0
231398,227975178.87598863,7843.21435546875,31.130502700805664,20.0
231399,227975198.8759093,7761.208984375,31.059480667114258,20.0
231400,227975218.87582996,7692.24365234375,31.019548416137695,20.0
231401,227975238.8757506,7706.13818359375,30.991640090942383,20.0
231402,227975258.87567124,7649.78466796875,30.984638214111328,20.0
231403,227975278.8755918,7752.638671875,31.04673194885254,20.0
231404,227975298.87551242,7738.89453125,31.051591873168945,20.0
231405,227975318.8754331,7753.0634765625,31.051910400390625,20.0
231406,227975338.87535378,7702.92236328125,30.996122360229492,20.0
231407,227975358.8752744,7670.06005859375,30.968338012695312,20.0
231408,227975378.87519503,7746.2333984375,31.022924423217773,20.0
231409,227975398.8751107,7672.77783203125,31.03912353515625,20.0
231410,227975418.87503132,7734.25048828125,31.035247802734375,20.0
231411,227975438.87495196,7767.7431640625,31.035017013549805,20.0
231412,227975458.87487262,7741.1357421875,31.01055335998535,20.0
231413,227975478.8747933,7709.3212890625,31.022008895874023,20.0
231414,227975498.87471393,7703.1650390625,31.009355545043945,20.0
231415,227975518.87463453,7705.494140625,31.009830474853516,20.0
231416,227975538.8745551,7727.8623046875,31.037616729736328,20.0
231417,227975558.87447575,7624.94775390625,30.941041946411133,20.0
231418,227975578.8743964,7653.857421875,30.98224639892578,20.0
231419,227975598.87431705,7729.79541015625,31.018796920776367,20.0
231420,227975618.8742377,7735.7607421875,31.018421173095703,20.0
231421,227975638.8741583,7715.9013671875,31.03893280029297,20.0
231422,227975658.87407887,7736.14599609375,31.04437255859375,20.0
231423,227975678.87399954,7714.38232421875,31.001741409301758,20.0
231424,227975698.87392023,7731.12548828125,31.019628524780273,20.0
231425,227975718.87384087,7809.01220703125,31.086750030517578,20.0
231426,227975738.87376148,7692.98779296875,30.98455810546875,20.0
231427,227975758.87368217,7687.171875,30.97402572631836,20.0
231428,227975778.87360275,7745.94873046875,31.02213478088379,20.0
231429,227975798.87352335,7660.955078125,30.978044509887695,20.0
231430,227975818.873444,7685.361328125,30.961868286132812,20.0
231431,227975838.87336463,7745.28662109375,31.018646240234375,20.0
231432,227975858.87328026,7746.32080078125,31.03614044189453,20.0
231433,227975878.87320092,7736.0205078125,31.034366607666016,20.0
231434,227975898.87312153,7733.9267578125,31.041231155395508,20.0
231435,227975918.87304214,7722.54736328125,30.995328903198242,20.0
231436,227975938.8729627,7759.98193359375,31.01608657836914,20.0
231437,227975958.87288338,7771.9912109375,31.038923263549805,20.0
231438,227975978.87280408,7675.51318359375,30.98009490966797,20.0
231439,227975998.87272468,7646.8671875,30.95125389099121,20.0
231440,227976018.87264532,7703.220703125,30.96276092529297,20.0
231441,227976038.872566,7700.16357421875,30.992563247680664,20.0
231442,227976058.87248668,7677.32080078125,30.985868453979492,20.0
231443,227976078.87240732,7767.9765625,31.044225692749023,20.0
231444,227976098.87232795,7790.15087890625,31.066925048828125,20.0
231445,227976118.87224862,7748.40966796875,31.042348861694336,20.0
231446,227976138.8721692,7662.2568359375,30.94991683959961,20.0
231447,227976158.8720898,7754.9501953125,31.050691604614258,20.0
231448,227976178.87201044,7708.95068359375,30.998844146728516,20.0
231449,227976198.87193108,7683.72216796875,30.998605728149414,20.0
231450,227976218.87185174,7776.51123046875,31.016706466674805,20.0
231451,227976238.8717724,7792.72021484375,31.100494384765625,20.0
231452,227976258.87169302,7808.15185546875,31.056108474731445,20.0
231453,227976278.8716136,7744.86279296875,31.008676528930664,20.0
231454,227976298.87153423,7662.3447265625,30.948760986328125,20.0
231455,227976318.87145486,7727.03857421875,31.009361267089844,20.0
231456,227976338.87137553,7764.2470703125,31.070655822753906,20.0
231457,227976358.87129617,7732.66650390625,31.04574203491211,20.0
231458,227976378.8712168,7695.6494140625,30.965499877929688,20.0
231459,227976398.8711374,7695.37646484375,31.051380157470703,20.0
231460,227976418.871058,7698.93603515625,30.962404251098633,20.0
231461,227976438.87097868,7699.35986328125,31.002582550048828,20.0
231462,227976458.87089935,7620.46142578125,30.938514709472656,20.0
231463,227976478.87082,7792.71923828125,31.41289520263672,20.0
231464,227976498.87074062,7723.4951171875,31.010101318359375,20.0
