,time_s,flux,flux_err,delta_t
344328,230463388.4188474,9005.4580078125,31.643705368041992,939.99
344329,230463408.4186924,9041.3515625,31.622800827026367,20.0
344330,230463428.41853487,9066.1728515625,31.94854736328125,20.0
344331,230463468.41822246,9059.6279296875,31.658306121826172,40.0
344332,230463528.41775244,8964.0400390625,31.84933090209961,60.0
344333,230463548.4175949,9045.5029296875,31.666425704956055,20.0
344334,230463568.41744,8983.69921875,31.603424072265625,20.0
344335,230463588.41728246,8994.7724609375,31.605335235595703,20.0
344336,230463628.41696995,8896.2119140625,31.55908203125,40.0
344337,230463648.4168125,8987.4501953125,31.609445571899414,20.0
344338,230463668.41665497,9036.1904296875,31.6352481842041,20.0
344339,230463688.4165,9019.62109375,31.615524291992188,20.0
344340,230463748.41602996,8975.703125,31.57806968688965,60.0
344341,230463788.41571754,9002.076171875,31.589214324951172,40.0
344342,230463828.4154025,8948.8203125,31.58904457092285,40.0
344343,230463848.4152475,9020.193359375,31.690387725830078,20.0
344344,230463888.4149325,8952.1630859375,31.553659439086914,40.0
344345,230463908.41477755,8855.779296875,31.523338317871094,20.0
344346,230463928.41462,9031.4580078125,31.630109786987305,20.0
344347,230463948.41446504,8968.123046875,31.626012802124023,20.0
344348,230463968.41430753,9058.234375,31.639015197753906,20.0
344349,230463988.41415003,9026.9267578125,31.588205337524414,20.0
344350,230464008.41399506,8985.2939453125,31.59796142578125,20.0
344351,230464028.41383758,8966.453125,31.57359504699707,20.0
344352,230464048.41368258,8979.2373046875,31.56910514831543,20.0
344353,230464068.41352507,8923.3369140625,31.528764724731445,20.0
344354,230464088.4133676,9019.0576171875,31.70682716369629,20.0
344355,230464108.41321254,9024.513671875,31.624799728393555,20.0
344356,230464128.41305512,9010.150390625,31.564435958862305,20.0
344357,230464148.41290012,9040.9345703125,31.647212982177734,20.0
344358,230464168.41274258,8923.154296875,31.53343391418457,20.0
344359,230464208.41243017,8928.337890625,31.558223724365234,40.0
344360,230464248.41211766,9014.89453125,31.598941802978516,40.0
344361,230464268.41196012,9063.3779296875,31.730398178100586,20.0
344362,230464288.41180512,8919.16015625,31.560672760009766,20.0
344363,230464308.41164765,8916.4365234375,31.57399559020996,20.0
344364,230464328.41149017,8994.6611328125,31.601362228393555,20.0
344365,230464348.41133517,8953.6357421875,31.529611587524414,20.0
344366,230464368.41117766,9037.576171875,31.62177848815918,20.0
344367,230464388.41102272,8985.5576171875,31.566328048706055,20.0
344368,230464408.41086516,9074.5947265625,31.604995727539062,20.0
344369,230464448.4105527,8850.712890625,31.47295379638672,40.0
344370,230464488.4102402,8970.9873046875,31.567798614501953,40.0
344371,230464508.41008276,8989.607421875,31.60739517211914,20.0
344372,230464548.40977025,8924.072265625,31.58907127380371,40.0
344373,230464568.40961525,8936.17578125,31.529855728149414,20.0
344374,230464608.40930277,9077.955078125,31.606714248657227,40.0
344375,230464628.4091453,9004.2568359375,31.580049514770508,20.0
344376,230464648.4089878,9011.841796875,31.640249252319336,20.0
344377,230464668.4088328,9012.4482421875,31.588685989379883,20.0
344378,230464808.40773788,9044.17578125,31.619413375854492,140.0
344379,230464968.4064879,8988.9169921875,31.588069915771484,160.0
344380,230464988.40633044,9035.1103515625,31.600866317749023,20.0
344381,230465008.4061754,8987.7216796875,31.611051559448242,20.0
344382,230465048.40586287,8947.677734375,31.550376892089844,40.0
344383,230465068.40570545,8931.7666015625,31.555891036987305,20.0
344384,230465088.4055504,8950.4375,31.57596778869629,20.0
344385,230465108.40539292,9034.7548828125,31.607980728149414,20.0
344386,230465148.4050804,8918.3271484375,31.555200576782227,40.0
344387,230465168.40492547,9032.7802734375,31.60167121887207,20.0
344388,230465188.404768,8847.0634765625,31.620189666748047,20.0
344389,230465208.404613,9095.671875,31.648839950561523,20.0
344390,230465228.40445545,9027.671875,31.60329246520996,20.0
344391,230465248.4043005,8996.943359375,31.591262817382812,20.0
344392,230465268.40414295,9021.572265625,31.603124618530273,20.0
344393,230465348.403518,8992.361328125,31.96277618408203,80.0
344394,230465368.40336308,8909.294921875,31.51421356201172,20.0
344395,230465408.40305057,9034.11328125,31.583837509155273,40.0
344396,230465428.40289557,8950.802734375,31.570255279541016,20.0
344397,230465468.4025831,8910.73828125,31.49573516845703,40.0
344398,230465488.40242562,9032.3466796875,31.633365631103516,20.0
344399,230465568.40180057,8945.9697265625,31.64518165588379,80.0
344400,230465608.40148816,8943.2060546875,31.57726287841797,40.0
344401,230465628.40133315,8973.953125,31.559114456176758,20.0
344402,230465648.40117562,8916.8779296875,31.56659698486328,20.0
344403,230465668.4010207,8992.9990234375,31.573497772216797,20.0
344404,230465708.4007082,9022.765625,31.588226318359375,40.0
344405,230465728.4005532,9049.65234375,31.632638931274414,20.0
344406,230465748.4003957,8994.0185546875,31.58159637451172,20.0
344407,230465788.40008324,8957.4658203125,31.553020477294922,40.0
344408,230465828.39977074,8941.5732421875,31.531221389770508,40.0
344409,230465848.39961576,9028.4619140625,31.639440536499023,20.0
344410,230465868.3994582,8840.140625,31.47726058959961,20.0
344411,230465888.39930326,8993.48046875,31.62519645690918,20.0
344412,230465908.3991483,8999.17578125,31.604530334472656,20.0
344413,230465928.39899078,9052.8662109375,31.665834426879883,20.0
344414,230465948.39883578,8989.80859375,31.585908889770508,20.0
344415,230465968.39867833,8969.7294921875,31.55984878540039,20.0
344416,230465988.39852327,9034.7802734375,31.67079734802246,20.0
344417,230466008.39836583,9017.18359375,31.597314834594727,20.0
344418,230466028.39821082,8963.5068359375,31.606969833374023,20.0
344419,230466048.39805582,8942.4169921875,31.53585433959961,20.0
344420,230466088.3977434,9011.6689453125,31.585552215576172,40.0
344421,230466108.39758584,8892.3779296875,31.503807067871094,20.0
344422,230466128.39743087,9007.4560546875,31.65426254272461,20.0
344423,230466168.39711836,9006.244140625,31.58466148376465,40.0
344424,230466188.3969634,8921.9130859375,31.525157928466797,20.0
344425,230466208.3968059,8950.9140625,31.538837432861328,20.0
344426,230466288.3961834,9035.48828125,31.627452850341797,80.0
344427,230466328.39587092,8924.380859375,31.553049087524414,40.0
344428,230466368.39555842,8955.2666015625,31.56361198425293,40.0
344429,230466388.39540347,8980.55078125,31.566953659057617,20.0
344430,230466488.39462358,8944.4677734375,31.551748275756836,100.0
344431,230466508.39446616,8967.0654296875,31.560070037841797,20.0
344432,230466528.39431116,9116.6064453125,31.66187858581543,20.0
344433,230466628.3935312,9056.8896484375,31.64068603515625,100.0
344434,230466768.39243877,8984.8662109375,31.588186264038086,140.0
344435,230466808.39212883,8991.9130859375,31.57810401916504,40.0
344436,230466828.3919713,8947.052734375,31.53731918334961,20.0
344437,230466908.39134884,8946.25,31.55073356628418,80.0
344438,230466968.39088136,8974.25390625,31.577573776245117,60.0
344439,230467068.39010143,8981.1533203125,31.580493927001953,100.0
344440,230467088.3899464,9004.55859375,31.604650497436523,20.0
344441,230467228.38885653,9040.216796875,31.6241512298584,140.0
344442,230467308.38823158,9013.2666015625,31.61627960205078,80.0
344443,230467348.38792157,8981.9501953125,31.789514541625977,40.0
344444,230467628.3857417,9052.2294921875,31.63214111328125,280.0
344445,230467648.38558418,8900.552734375,31.52755355834961,20.0
344446,230467728.38496172,8930.7705078125,31.57809829711914,80.0
344447,230467748.3848068,8965.154296875,31.571674346923828,20.0
344448,230467768.38465175,8974.0634765625,31.599716186523438,20.0
344449,230467808.3843393,8893.453125,31.548221588134766,40.0
344450,230467828.3841843,9139.919921875,31.68897247314453,20.0
344451,230467868.38387185,8908.3779296875,31.520896911621094,40.0
344452,230467928.38340437,8938.3349609375,31.57913589477539,60.0
344453,230467968.38309443,9070.5244140625,31.616565704345703,40.0
344454,230468008.3827819,8914.0537109375,31.521020889282227,40.0
344455,230468028.3826269,8966.7470703125,31.626157760620117,20.0
344456,230468048.38247198,9001.728515625,31.629037857055664,20.0
344457,230468068.3823169,8884.72265625,31.567764282226562,20.0
344458,230468088.38215947,9030.9423828125,31.662416458129883,20.0
344459,230468108.38200447,9075.5703125,31.625104904174805,20.0
344460,230468148.3816945,8983.3349609375,31.603759765625,40.0
344461,230468168.38153702,8915.2041015625,31.548036575317383,20.0
344462,230468248.3809145,9014.4853515625,31.626983642578125,80.0
344463,230468288.3806046,9059.8828125,31.702104568481445,40.0
344464,230468388.37982717,8944.82421875,31.58885383605957,100.0
344465,230468408.37967217,9072.955078125,31.72783660888672,20.0
344466,230468468.37920472,8987.07421875,31.624835968017578,60.0
344467,230468488.3790497,8999.4365234375,31.63129425048828,20.0
344468,230468508.37889472,9039.4267578125,31.63707160949707,20.0
344469,230468528.37873724,9055.544921875,31.659626007080078,20.0
344470,230468588.3782723,9000.8720703125,31.647764205932617,60.0
344471,230468608.3781173,8823.71875,31.513891220092773,20.0
344472,230468628.37795976,9031.5595703125,31.6463623046875,20.0
344473,230468648.37780485,9108.4814453125,31.676952362060547,20.0
344474,230468688.37749484,8964.271484375,31.615779876708984,40.0
344475,230468728.37718233,9066.84375,31.87904167175293,40.0
344476,230468748.37702733,8984.6005859375,31.604860305786133,20.0
344477,230468768.37687242,9015.287109375,31.755205154418945,20.0
344478,230468788.3767174,8996.935546875,31.628007888793945,20.0
344479,230468808.37656242,9089.1142578125,31.681852340698242,20.0
344480,230468888.3759399,8903.4970703125,31.575061798095703,80.0
344481,230468908.37578496,8911.74609375,31.597511291503906,20.0
344482,230468928.3756299,8934.80859375,31.597904205322266,20.0
344483,230468948.37547246,8992.884765625,31.61907196044922,20.0
344484,230468968.37531745,8960.0927734375,31.627866744995117,20.0
344485,230468988.37516245,9007.1259765625,31.631040573120117,20.0
344486,230469008.3750075,8969.6767578125,31.615779876708984,20.0
344487,230469028.37485254,8912.5341796875,31.56963348388672,20.0
344488,230469068.37454003,8932.8291015625,31.586288452148438,40.0
344489,230469088.37438506,8997.7744140625,31.648513793945312,20.0
344490,230469148.3739201,8951.71875,31.738506317138672,60.0
344491,230469168.3737651,9006.6962890625,31.635602951049805,20.0
344492,230469208.37345266,9023.8974609375,31.738534927368164,40.0
344493,230469248.37314266,9048.556640625,31.669031143188477,40.0
344494,230469268.37298766,8956.142578125,31.616222381591797,20.0
344495,230469288.37283266,8937.2666015625,31.590789794921875,20.0
344496,230469308.3726777,9106.9619140625,31.74296760559082,20.0
344497,230469348.3723652,8960.865234375,31.634681701660156,40.0
344498,230469368.37221023,9007.3955078125,31.623010635375977,20.0
344499,230469388.37205526,8923.73828125,31.603479385375977,20.0
344500,230469408.37190023,8958.185546875,31.591371536254883,20.0
344501,230469448.37159032,8930.0693359375,31.709646224975586,40.0
344502,230469468.3714328,9017.5166015625,31.6517276763916,20.0
344503,230469488.3712778,9030.01953125,31.67869758605957,20.0
344504,230469508.37112287,8935.458984375,31.603124618530273,20.0
344505,230469768.36910552,8897.7900390625,31.591026306152344,260.0
344506,230469808.36879554,8988.236328125,31.65118980407715,40.0
344507,230469828.368638,9012.42578125,31.693161010742188,20.0
344508,230469948.36770824,9052.916015625,31.705127716064453,120.0
344509,230469968.36755326,9004.5078125,31.67535972595215,20.0
344510,230470128.3663109,8973.3681640625,31.653533935546875,160.0
344511,230470148.36615583,9029.857421875,31.711380004882812,20.0
344512,230470168.3660009,8932.400390625,31.612472534179688,20.0
344513,230470228.3655359,8989.6357421875,31.672712326049805,60.0
344514,230470268.36522597,9071.345703125,31.738630294799805,40.0
344515,230470408.3641385,8985.58203125,31.66488265991211,140.0
344516,230470428.3639836,9005.5341796875,31.67314338684082,20.0
344517,230470448.3638285,8961.7041015625,31.68372344970703,20.0
344518,230470468.3636736,8913.06640625,31.64014434814453,20.0
344519,230470488.3635186,8967.845703125,31.661396026611328,20.0
344520,230470528.36320865,8985.4287109375,31.672893524169922,40.0
344521,230470548.36305368,9003.169921875,31.69268035888672,20.0
344522,230470568.36289865,9020.291015625,31.708127975463867,20.0
344523,230470588.36274368,8952.6982421875,31.657480239868164,20.0
344524,230470608.36258873,8948.6953125,31.683258056640625,20.0
344525,230470628.36243367,9022.1484375,31.70423126220703,20.0
344526,230470648.36227873,8962.1533203125,31.66973304748535,20.0
344527,230470668.36212376,8899.3857421875,31.589075088500977,20.0
344528,230470688.36196876,8986.4697265625,31.679058074951172,20.0
344529,230470708.36181375,8959.30859375,31.673173904418945,20.0
344530,230470728.36165884,8873.62890625,31.64720916748047,20.0
344531,230470748.36150375,8990.388671875,31.69504165649414,20.0
344532,230470768.36134884,8995.314453125,31.708419799804688,20.0
344533,230470788.36119384,8998.689453125,31.698007583618164,20.0
344534,230470808.36103883,8956.8115234375,31.669034957885742,20.0
344535,230470828.3608839,9020.798828125,31.695772171020508,20.0
344536,230470848.36072892,8978.041015625,31.681209564208984,20.0
344537,230470868.3605739,8998.365234375,31.72431755065918,20.0
344538,230470888.36041892,9013.171875,31.713130950927734,20.0
344539,230470908.36026394,8850.8125,31.576032638549805,20.0
344540,230470928.3601089,8951.0751953125,31.664583206176758,20.0
344541,230470948.35995397,8998.7783203125,31.744211196899414,20.0
344542,230470968.359799,9012.703125,31.689273834228516,20.0
344543,230470988.359644,9050.59375,31.73909568786621,20.0
344544,230471008.359489,9003.6318359375,31.756912231445312,20.0
344545,230471028.35933408,8952.4892578125,31.663196563720703,20.0
344546,230471048.359179,8938.8046875,31.667591094970703,20.0
344547,230471068.35902408,8945.8076171875,31.67331886291504,20.0
344548,230471088.35886908,8980.3701171875,31.690067291259766,20.0
344549,230471108.35871407,9020.1748046875,31.71390724182129,20.0
344550,230471128.3585591,9025.515625,31.731515884399414,20.0
344551,230471148.35840416,8932.6171875,31.642887115478516,20.0
344552,230471168.3582491,8990.5634765625,31.72234344482422,20.0
344553,230471188.35809416,9035.8955078125,31.742862701416016,20.0
344554,230471208.35793918,8927.9501953125,31.648876190185547,20.0
344555,230471228.35778415,8930.9384765625,31.647584915161133,20.0
344556,230471248.35762918,9094.74609375,31.78390121459961,20.0
344557,230471268.35747424,8978.0322265625,31.7069091796875,20.0
344558,230471288.35731924,8914.7783203125,31.66151237487793,20.0
344559,230471308.35716423,9045.7099609375,31.765817642211914,20.0
344560,230471328.35700926,8916.462890625,31.69448471069336,20.0
344561,230471348.35685423,9094.04296875,31.80462074279785,20.0
344562,230471368.35669932,8978.234375,31.682985305786133,20.0
344563,230471388.35654432,8994.4033203125,31.67365837097168,20.0
344564,230471408.3563893,8972.6611328125,31.7320613861084,20.0
344565,230471428.35623428,8956.3427734375,31.7105712890625,20.0
344566,230471448.3560793,8893.974609375,31.63438606262207,20.0
344567,230471468.35592434,8996.6669921875,31.716703414916992,20.0
344568,230471488.3557693,8895.8466796875,31.650405883789062,20.0
344569,230471508.35561433,9019.7333984375,31.745040893554688,20.0
344570,230471528.3554594,8945.083984375,31.676950454711914,20.0
344571,230471548.3553044,8868.982421875,31.748083114624023,20.0
344572,230471568.3551494,8947.6376953125,31.7108211517334,20.0
344573,230471588.35499448,9056.46875,31.767011642456055,20.0
344574,230471608.3548419,8981.34375,31.738332748413086,20.0
344575,230471628.35468698,8942.1435546875,31.66942596435547,20.0
344576,230471648.35453197,9038.048828125,31.7615909576416,20.0
344577,230471668.35437697,8982.3203125,31.70857810974121,20.0
344578,230471688.35422203,8926.4658203125,31.71363639831543,20.0
344579,230471708.35406706,8942.9794921875,31.689693450927734,20.0
344580,230471728.35391203,9034.5947265625,31.761831283569336,20.0
344581,230471748.35375705,8918.701171875,31.686120986938477,20.0
344582,230471768.3536021,8967.072265625,31.77158546447754,20.0
344583,230471788.35344705,9011.9716796875,31.747081756591797,20.0
344584,230471828.35313714,9015.9404296875,31.733078002929688,40.0
344585,230471848.35298213,8851.0048828125,31.66908073425293,20.0
344586,230471868.35282713,8962.78125,31.74919319152832,20.0
344587,230471888.35267222,8969.9111328125,31.689668655395508,20.0
344588,230471908.35251966,8970.9423828125,31.73780059814453,20.0
344589,230471928.35236472,8910.091796875,31.679048538208008,20.0
344590,230471948.35220972,9042.8583984375,31.749042510986328,20.0
344591,230471968.35205474,9006.2275390625,31.74675178527832,20.0
344592,230471988.35189974,8896.173828125,31.689983367919922,20.0
344593,230472008.3517448,8974.4580078125,31.722198486328125,20.0
344594,230472028.35158977,9023.630859375,31.76540756225586,20.0
344595,230472048.3514348,9022.2421875,31.79741668701172,20.0
344596,230472068.3512798,8971.9619140625,31.73952293395996,20.0
344597,230472088.35112482,9076.9130859375,31.792552947998047,20.0
344598,230472108.35096985,8887.0498046875,31.659515380859375,20.0
344599,230472128.35081488,9030.6513671875,31.776552200317383,20.0
344600,230472148.3506624,8992.0703125,31.732553482055664,20.0
344601,230472168.3505074,9049.9921875,31.80402946472168,20.0
344602,230472188.35035244,8971.02734375,31.766000747680664,20.0
344603,230472208.3501974,9001.0546875,31.716699600219727,20.0
344604,230472228.3500425,9059.265625,31.81331443786621,20.0
344605,230472248.3498875,8936.728515625,31.70060920715332,20.0
344606,230472268.3497325,8924.41796875,31.69536590576172,20.0
344607,230472288.3495775,9062.609375,31.81078338623047,20.0
344608,230472308.34942254,9023.1201171875,31.783912658691406,20.0
344609,230472328.34927005,8936.6943359375,31.74699592590332,20.0
344610,230472348.34911507,8957.271484375,31.737606048583984,20.0
344611,230472368.34896007,8939.703125,31.667325973510742,20.0
344612,230472388.34880507,9005.650390625,31.793758392333984,20.0
344613,230472408.3486501,8956.55859375,31.729331970214844,20.0
344614,230472428.34849516,9072.1279296875,31.801631927490234,20.0
344615,230472448.34834015,8907.0361328125,31.687673568725586,20.0
344616,230472468.34818515,9000.072265625,31.7646427154541,20.0
344617,230472488.3480327,8960.3349609375,31.728151321411133,20.0
344618,230472508.34787768,8929.40625,31.725788116455078,20.0
344619,230472528.34772274,8935.669921875,31.722030639648438,20.0
344620,230472548.34756774,9064.224609375,31.868009567260742,20.0
344621,230472568.34741274,9058.80078125,31.7880859375,20.0
344622,230472588.34725773,8964.466796875,31.753389358520508,20.0
344623,230472608.34710282,8963.5693359375,31.745620727539062,20.0
344624,230472628.3469478,8959.9384765625,31.751218795776367,20.0
344625,230472648.34679535,8967.54296875,31.791240692138672,20.0
344626,230472668.34664035,8977.958984375,31.788455963134766,20.0
344627,230472688.34648535,8994.0478515625,31.7757625579834,20.0
344628,230472708.34633034,8988.0986328125,31.798755645751953,20.0
344629,230472728.34617534,8868.904296875,31.71369171142578,20.0
344630,230472748.34602043,9054.31640625,31.8471736907959,20.0
344631,230472768.34586534,8941.2880859375,31.751598358154297,20.0
344632,230472788.34571293,9004.5703125,31.792282104492188,20.0
344633,230472808.34555793,9089.833984375,31.849634170532227,20.0
344634,230472828.34540293,9002.755859375,31.811763763427734,20.0
344635,230472848.34524792,8941.072265625,31.756877899169922,20.0
344636,230472868.345093,9033.6728515625,31.85003089904785,20.0
344637,230472888.34493798,9048.990234375,31.839815139770508,20.0
